Incident energy , σ(E)
1049934.265 , 4.14906158
1150742.066 , 3.9458482
1261558.998 , 3.75188435
1380839.102 , 3.57104151
1510581.155 , 3.39947011
1660876.18 , 3.22751683
1812697.385 , 3.07650701
1988430.414 , 2.92445134
2186013.669 , 2.76572103
2387510.646 , 2.6250391
2600000.0 , 2.49573266
2848713.924 , 2.36436035
3222573.125 , 2.19032802
3510624.476 , 2.07341986
3826805.585 , 1.96202909
4298837.057 , 1.81459863
4664897.72 , 1.71526102
5200000.0 , 1.58859152
5600000.0 , 1.50440129
6142204.511 , 1.40437887
6600000.0 , 1.32823096
7214511.849 , 1.2384099
7714785.059 , 1.17299533
8367551.16 , 1.09706708
8966712.142 , 1.03529071
9622606.01 , 0.974603361
1.0E7 , 0.943032454
1.012272242E7 , 0.932714625
1.026553581E7 , 0.921050252
1.030963561E7 , 0.917448373
1.045508601E7 , 0.905974917
1.05E7 , 0.902432
1.062282798E7 , 0.893014861
1.077269696E7 , 0.88183788
1.080976914E7 , 0.879073098
1.096227552E7 , 0.868070611
1.1E7 , 0.865349
1.112292418E7 , 0.856718487
1.127984862E7 , 0.845988109
1.130989077E7 , 0.843933849
1.146945297E7 , 0.833363598
1.15E7 , 0.83134
1.16622443E7 , 0.820972787
1.174734017E7 , 0.815535264
1.191307399E7 , 0.805365143
1.2E7 , 0.800031
1.21692984E7 , 0.789620792
1.224744876E7 , 0.784815304
1.242023822E7 , 0.774603087
1.25E7 , 0.769889
1.26763525E7 , 0.759863015
1.274754883E7 , 0.755815364
1.29273938E7 , 0.745972654
1.3E7 , 0.741999
1.31834066E7 , 0.732329269
1.324764135E7 , 0.728942626
1.343454172E7 , 0.719443046
1.35E7 , 0.716116
1.36904607E7 , 0.706777754
1.374772713E7 , 0.703969994
1.394168281E7 , 0.694790134
1.4E7 , 0.69203
1.41975148E7 , 0.682612953
1.42478069E7 , 0.680215142
1.444881781E7 , 0.670958869
1.45E7 , 0.668602
1.47045689E7 , 0.659498449
1.474788125E7 , 0.657571
1.495594731E7 , 0.648617645
1.5E7 , 0.646722
1.5211623E7 , 0.637911538
1.524795073E7 , 0.636399112
1.546307187E7 , 0.627729281
1.55E7 , 0.626241
1.57186771E7 , 0.617704905
1.57480158E7 , 0.616559664
1.597019196E7 , 0.608155532
1.6E7 , 0.607028
1.62257312E7 , 0.598522045
1.624807686E7 , 0.597680021
1.647730798E7 , 0.589305054
1.65E7 , 0.588476
1.67327853E7 , 0.580225776
1.674813427E7 , 0.579681788
1.69844203E7 , 0.571554856
1.7E7 , 0.571019
1.72398394E7 , 0.563010149
1.724818836E7 , 0.562731356
1.749152925E7 , 0.554838744
1.75E7 , 0.554564
1.77468935E7 , 0.546782729
1.77482394E7 , 0.546740311
1.799863511E7 , 0.539068817
1.8E7 , 0.539027
1.824828764E7 , 0.531250402
1.85E7 , 0.523586
1.874833331E7 , 0.516231851
1.9E7 , 0.508981
1.92483766E7 , 0.502016348
1.95E7 , 0.495147
1.974841771E7 , 0.488542451
2.0E7 , 0.480126
2.024544476E7 , 0.473668902
2.053107154E7 , 0.466392592
2.061927113E7 , 0.464145717
2.091017193E7 , 0.457015698
2.1E7 , 0.454814
2.124565588E7 , 0.449296921
2.154539384E7 , 0.442762832
2.161953819E7 , 0.441146534
2.192455096E7 , 0.434730975
2.2E7 , 0.433144
2.224584829E7 , 0.428406851
2.255969717E7 , 0.422524273
2.261978145E7 , 0.421398093
2.293890585E7 , 0.415611754
2.3E7 , 0.414504
2.324602437E7 , 0.410046614
2.357398393E7 , 0.404261964
2.362000397E7 , 0.403450249
2.395323971E7 , 0.397758656
2.4E7 , 0.39696
2.424618613E7 , 0.392755675
2.458825617E7 , 0.387064168
2.462020828E7 , 0.386532535
2.49675551E7 , 0.380931208
2.5E7 , 0.380408
2.524633524E7 , 0.376444999
2.560251559E7 , 0.370858242
2.562039654E7 , 0.370577776
2.598185422E7 , 0.365078093
2.6E7 , 0.364802
2.624647312E7 , 0.361067803
2.661676361E7 , 0.35559433
2.662057056E7 , 0.355538057
2.699613889E7 , 0.350148409
2.7E7 , 0.350093
2.73809214E7 , 0.34471197
2.749545422E7 , 0.343094039
2.788336559E7 , 0.337820585
2.8E7 , 0.336235
2.83950296E7 , 0.33098074
2.849561375E7 , 0.329642878
2.889763557E7 , 0.324491631
2.9E7 , 0.32318
2.94091378E7 , 0.318056198
2.949576246E7 , 0.316971362
2.991189458E7 , 0.311945994
3.0E7 , 0.310882
3.0423246E7 , 0.305861531
3.048796496E7 , 0.305093846
3.085914031E7 , 0.300823563
3.114048434E7 , 0.297660121
3.156731699E7 , 0.292977223
3.2E7 , 0.288368
3.24514624E7 , 0.283610497
3.248869103E7 , 0.283218182
3.286010076E7 , 0.279416263
3.332369763E7 , 0.27481599
3.342519153E7 , 0.273808866
3.389676082E7 , 0.269300912
3.4E7 , 0.268314
3.44796788E7 , 0.263795013
3.448933446E7 , 0.263704048
3.486095149E7 , 0.260298636
3.535277677E7 , 0.255923295
3.542589812E7 , 0.255272798
3.592569378E7 , 0.250981936
3.6E7 , 0.250344
3.648990861E7 , 0.246180532
3.686171031E7 , 0.243103435
3.738176269E7 , 0.238919871
3.742652797E7 , 0.238559756
3.795454891E7 , 0.234454383
3.8E7 , 0.234101
3.849042408E7 , 0.230362128
3.886239134E7 , 0.227597214
3.941066973E7 , 0.223630754
3.942709294E7 , 0.223511942
3.998333825E7 , 0.219616679
4.0E7 , 0.2195
4.049088945E7 , 0.216158205
4.086300597E7 , 0.21368529
4.142760257E7 , 0.210028861
4.2E7 , 0.206435
4.249131168E7 , 0.203453006
4.286356345E7 , 0.201244814
4.342806461E7 , 0.197977381
4.4E7 , 0.194763
4.44916965E7 , 0.192102219
4.511939425E7 , 0.188809431
4.523956281E7 , 0.188179049
4.587781161E7 , 0.184953508
4.6E7 , 0.184336
4.649204867E7 , 0.181958394
4.714796779E7 , 0.178881165
4.724000784E7 , 0.178449361
4.790647932E7 , 0.175431476
4.8E7 , 0.175008
4.849237219E7 , 0.17287611
4.917651228E7 , 0.169995904
4.924041647E7 , 0.16972687
4.993511011E7 , 0.166899133
5.0E7 , 0.166635
5.04926704E7 , 0.164710154
5.120503109E7 , 0.162000524
5.124079299E7 , 0.161864495
5.196370835E7 , 0.159201678
5.2E7 , 0.159068
5.249294618E7 , 0.157312916
5.323352716E7 , 0.154742954
5.324114104E7 , 0.154716532
5.399227771E7 , 0.152188985
5.4E7 , 0.152163
5.449320195E7 , 0.150539708
5.524146373E7 , 0.148137182
5.6E7 , 0.145773
5.649343982E7 , 0.144253661
5.724176373E7 , 0.142004293
5.8E7 , 0.13979
5.88182756E7 , 0.1374531
5.899152487E7 , 0.13695832
5.98237891E7 , 0.134668757
6.0E7 , 0.134184
6.0846492E7 , 0.131922981
6.099180278E7 , 0.131534849
6.185228733E7 , 0.129318469
6.2E7 , 0.128938
6.28747084E7 , 0.126755548
6.299206304E7 , 0.126462741
6.388076766E7 , 0.124322186
6.4E7 , 0.124035
6.49029248E7 , 0.121932137
6.499230729E7 , 0.12172397
6.590923176E7 , 0.119660288
6.6E7 , 0.119456
6.69311412E7 , 0.117434362
6.699253695E7 , 0.117301063
6.793768106E7 , 0.115315894
6.8E7 , 0.115185
6.89593576E7 , 0.113244053
6.899275329E7 , 0.113176488
6.996611685E7 , 0.111269387
7.0E7 , 0.111203
7.0987574E7 , 0.109342913
7.099295745E7 , 0.109332773
7.199454029E7 , 0.107503969
7.2E7 , 0.107494
7.299315041E7 , 0.105751883
7.4E7 , 0.104038
7.499333309E7 , 0.102415854
7.6E7 , 0.100819
7.699350627E7 , 0.099307977
7.8E7 , 0.0978196
7.899367068E7 , 0.096410196
8.0E7 , 0.0950211
8.099382698E7 , 0.093704681
8.2E7 , 0.0924065
8.299397573E7 , 0.091174031
8.4E7 , 0.089958
8.499411749E7 , 0.088800503
8.6E7 , 0.0876579
8.699425273E7 , 0.086566506
8.8E7 , 0.0854887
8.89943819E7 , 0.084454444
9.0E7 , 0.0834327
9.099450538E7 , 0.082446724
9.2E7 , 0.0814724
9.299462355E7 , 0.080526003
9.4E7 , 0.0795906
9.499473675E7 , 0.078683986
9.6E7 , 0.0777877
9.699484527E7 , 0.076922084
9.8E7 , 0.0760661
9.899494942E7 , 0.075240166
1.0E8 , 0.0744232
